##TITLE= SPLICCO spectrum (File: c:\Users\pc-users\Desktop\yael gilad asaf\helium.jdx)
##JCAMP-DX= 4.24
##DATE= 10.5.2026
##TIME= 15:9:38
##DATA TYPE= INFRARED SPECTRUM
##OWNER= Public Domain
##RESOLUTION= 2.0
##DELTAX= 1.00000000
##XUNITS= NANOMETERS
##YUNITS= ARBITRARY UNITS
##APPLICATION= SPLICCO
$$SHOW_VERTICAL_FLIPPED= 0
$$SHOW_HORIZONTAL_FLIPPED= 0
##XFACTOR= 1.0
##YFACTOR= 0.000001
##FIRSTX= 321.791
##LASTX= 741.106
##NPOINTS= 3648
##FIRSTY= 0.000016
##XYDATA= (X++(Y..Y))
321.791  15 -22 5 -16 8 2 3 6
322.711  -13 12 -41 25 -17 4 -4 0
323.631  4 -8 0 -27 10 -16 16 -12
324.551  4 6 6 19 -16 9 -4 12
325.470  -23 24 -7 2 2 -7 12 -17
326.390  3 -24 27 -18 23 4 4 14
327.310  -11 10 -11 25 -12 17 -13 -4
328.230  -8 -21 -4 -19 0 -24 14 -26
329.150  3 -8 2 -5 -12 0 -16 10
330.070  -24 13 -29 0 -17 -2 3 -8
330.989  8 -15 19 -19 13 -19 13 0
331.909  0 3 -6 8 -15 10 -14 19
332.829  -5 9 -17 -8 0 -13 0 -12
333.749  15 -14 24 -10 11 -4 6 1
334.669  -8 -3 -15 13 -13 15 -27 0
335.589  -26 0 -4 -4 0 -17 10 -20
336.508  14 -24 4 -17 9 -13 -12 -11
337.428  -11 5 -10 17 -26 31 -19 5
338.348  -1 -6 -7 -7 13 -20 -5 -24
339.268  15 -6 14 -21 6 0 1 13
340.188  4 1 -12 28 -25 15 -19 17
341.108  -20 -5 0 -4 -5 -22 16 -26
342.027  15 -22 14 -10 3 -7 -1 -4
342.947  -14 3 -22 15 -9 18 -14 14
343.867  -13 10 -7 -9 -2 -16 -3 -21
344.787  32 -31 16 -24 1 -9 3 -6
345.707  -13 -15 -26 -3 -26 18 -25 7
346.627  -12 1 1 6 4 -3 8 -17
347.547  9 -20 18 -30 1 -20 14 -19
348.466  3 1 -8 1 -8 28 -20 12
349.386  -31 17 -12 18 -16 -10 -15 -8
350.306  0 -9 6 -14 16 -24 8 -29
351.226  14 -2 3 -11 -4 0 -15 0
352.146  -16 9 -18 20 -23 13 -20 10
353.066  -4 -2 -2 -2 9 -14 13 -14
353.985  22 -20 12 -19 13 -6 2 -1
354.905  -2 -7 -16 12 -5 19 -12 25
355.825  -28 16 -9 6 -1 13 1 -10
356.745  -3 -10 12 -24 14 -18 25 -17
357.665  10 -15 -6 -16 -1 -10 -21 -7
358.585  -13 1 -19 -2 -25 19 -25 22
359.504  -11 6 -10 -4 -8 -7 3 -11
360.424  5 -18 11 -39 9 -27 8 -17
361.344  16 -8 -1 -1 -2 5 -23 -12
362.264  -25 18 -27 15 -33 9 -25 11
363.184  -19 -10 -15 -2 5 -12 1 -20
364.104  2 -21 18 -20 13 -12 0 -16
365.023  -2 -17 -13 -15 -9 8 -6 18
365.943  -6 11 -13 10 -38 9 -28 0
366.863  -22 0 -5 -12 -7 -10 3 -20
367.783  0 -16 17 -29 9 -21 22 -22
368.703  2 -7 -5 -28 -23 -6 -17 -10
369.623  -17 -9 -41 10 -35 14 -24 -8
370.543  -19 -2 -12 -1 -22 -25 -13 -11
371.462  -5 -17 2 -20 6 -24 15 -22
372.382  27 -30 12 -13 11 -3 -1 -12
373.302  -17 -2 -21 -7 -23 4 -22 3
374.222  -20 17 -24 16 -14 11 -10 0
375.142  -3 0 -2 -1 8 -20 8 -18
376.062  6 -19 15 -34 11 -23 11 -16
376.981  0 -12 -7 -6 -6 -1 -2 2
377.901  -8 -3 -30 14 -18 31 -19 1
378.821  -24 6 -20 0 -9 -4 -17 -13
379.741  -4 -1 8 -5 8 -18 19 -26
380.661  29 -41 -2 -33 15 -26 0 -16
381.581  -5 -11 6 -1 -5 1 -65 -127
382.500  -140 -51 -67 -35 -56 -21 -35 -13
383.420  -34 -3 -22 5 -14 -1 -14 -20
384.340  -22 -33 -29 -33 -38 -61 -42 -55
385.260  -28 -41 -26 -56 -33 -50 -47 -73
386.180  -46 -78 -74 -94 -88 -96 -117 -115
387.100  -145 -126 -158 -130 -165 -111 -179 -142
388.019  -182 -141 -194 -173 -215 -192 -226 -256
388.939  -412 205529 673742 890457 791413 635939 428632 286052
389.859  226137 171176 95382 30334 1180 -438 -309 -300
390.779  -233 -241 -184 -194 -146 -135 -106 -108
391.699  -87 -84 -69 -60 -73 -40 -56 -42
392.619  -48 -8 -55 -10 -55 -10 -50 -9
393.539  -48 6 -28 -5 -24 -8 -21 -14
394.458  -20 -26 -29 -23 -10 -25 -8 -29
395.378  0 -28 0 -32 2 -41 9 -24
396.298  -6 -17 -12 -139 -363 -429 -239 -157
397.218  -122 -97 -76 -71 -61 -29 -22 -2
398.138  -31 -10 -34 -1 -22 17 -29 10
399.058  -34 16 -26 6 -38 -9 -27 0
399.977  -13 -1 -5 -10 -18 -19 -6 -10
400.897  -4 -32 -3 -27 7 -17 0 -23
401.817  -1 -56 10 -44 7 -29 -16 -61
402.737  459 6559 13991 2003 -311 -242 -198 -180
403.657  -155 -117 -69 -27 -29 -20 -33 -18
404.577  -31 -6 -31 5 -23 19 -36 9
405.496  -24 1 -32 -5 -25 6 -28 -3
406.416  -19 0 -7 -10 -25 -13 -6 -19
407.336  -6 -12 -3 -25 7 -17 10 -31
408.256  -1 -27 16 -24 20 -20 13 -17
409.176  9 -27 14 -28 9 -17 -2 -12
410.096  -4 -12 -6 -1 -7 -4 -8 -13
411.015  -16 0 -16 -1 -12 7 -22 3
411.935  -21 6 -76 -89 -145 -57 -61 -19
412.855  -66 -6 -44 -8 -33 1 -26 -1
413.775  -29 -18 -21 -4 -4 -9 -31 -54
414.695  -57 -46 -10 -18 -8 -35 -10 -34
415.615  -9 -25 4 -21 11 -23 19 -15
416.535  4 -29 2 -28 -3 -19 5 -29
417.454  8 -19 5 -7 4 -10 -2 -9
418.374  -2 -9 -7 -6 -4 -2 -14 1
419.294  -20 0 -12 4 -28 11 -20 12
420.214  -24 19 -36 12 -24 20 -41 8
421.134  -38 16 -22 6 -15 3 -36 -2
422.054  -18 -8 -24 5 -11 -9 0 0
422.973  -7 -4 -10 -11 -11 -12 -5 -14
423.893  -2 -14 0 -11 6 -24 8 -21
424.813  7 -24 9 -26 12 -38 13 -41
425.733  20 -55 13 -17 16 -15 15 -10
426.653  7 -14 15 -23 2 -20 -6 -15
427.573  -3 -14 1 -10 -10 -9 -2 -10
428.492  -8 5 -9 -2 -4 -14 -24 7
429.412  0 8 -11 -21 0 -19 -4 -17
430.332  10 -21 11 -17 13 -19 9 -41
431.252  20 -29 12 -38 0 -45 3 -34
432.172  0 -36 2 -19 -5 -24 0 -11
433.092  2 -13 12 -5 0 -7 0 -6
434.011  6 1 0 -1 -4 0 -12 -11
434.931  -26 -20 -22 -10 -24 -7 -32 2
435.851  -22 7 -20 10 -21 3 -25 9
436.771  -16 -2 -19 8 -39 13 -25 10
437.691  -31 0 -30 -1 -22 9 -39 13
438.611  -49 -133 -335 -301 -239 -127 -99 -59
439.531  -80 -56 -75 -44 -51 -26 -38 -7
440.450  -20 -8 -26 -14 -19 -8 -9 -4
441.370  -10 -13 -6 -7 -7 -10 -13 -27
442.290  -9 -19 -9 -22 -12 -18 0 -30
443.210  -1 -19 0 -25 -28 -63 -39 -70
444.130  -21 -63 -28 -71 -36 -59 -29 -60
445.050  -23 -85 -54 -124 -58 -115 -58 -98
445.969  -59 -93 -72 -132 -87 -122 -91 -151
446.889  -203 37085 306230 516006 436175 281962 172474 98233
447.809  68387 53085 41976 34493 26169 13438 1739 -463
448.729  -366 -343 -304 -275 -233 -242 -221 -202
449.649  -151 -122 -98 -89 -82 -76 -68 -79
450.569  -80 -61 -52 -49 -42 -46 -40 -32
451.488  -36 -22 -33 -24 -28 -21 -30 -17
452.408  -29 -23 -34 -9 -27 -11 -37 -14
453.328  -20 -5 -24 1 -38 -3 -19 0
454.248  -25 0 -22 -6 -16 8 -10 10
455.168  -28 -1 -26 4 -21 10 -7 -1
456.088  -14 3 -23 7 -28 2 -34 13
457.007  -24 0 -35 29 -25 10 -26 0
457.927  -25 15 -25 19 -20 3 -38 21
458.847  18 -23 11 -42 10 -36 15 -30
459.767  19 -31 5 -24 14 -20 8 -28
460.687  7 -26 19 -13 -4 -17 11 -22
461.607  9 -13 -10 -22 4 -8 8 -7
462.527  9 -19 -9 -24 2 -11 6 -11
463.446  7 -9 -2 -10 6 -8 0 -11
464.366  6 -13 -4 -30 -3 -7 0 -21
465.286  3 -15 -4 -25 -7 -9 3 -26
466.206  -2 -16 -13 -15 0 -16 0 -4
467.126  3 -17 -5 -24 -6 -16 -9 -10
468.046  -2 -17 -6 -14 -4 -10 -7 -15
468.965  -10 -6 1 -8 0 -14 -9 -14
469.885  -12 -9 -6 -6 -15 -28 -24 -25
470.805  -18 -15 -36 -281 7652 13506 4559 -553
471.725  -421 -302 -223 -184 -158 -152 -140 -131
472.645  -106 -84 -53 -44 -32 -35 -20 -14
473.565  -21 -25 -16 -22 -19 -14 -3 -11
474.484  -14 -7 -5 -19 -19 -17 -6 -11
475.404  -9 -19 -17 -11 -9 -12 -13 -15
476.324  -6 -9 -10 -17 -6 -4 0 -11
477.244  -11 -12 -8 -10 1 2 -1 -4
478.164  11 -7 -7 -8 2 -7 -9 -11
479.084  -5 -8 5 -19 -7 -8 0 -1
480.003  0 -8 8 -13 -9 -10 0 -12
480.923  1 -4 -3 -17 1 -17 -8 -15
481.843  0 -10 -11 -18 -7 -14 -2 -22
482.763  -1 -6 -3 -17 -3 -11 14 -10
483.683  0 -11 0 -13 3 -12 5 -17
484.603  2 -19 1 -9 5 -27 -5 -7
485.523  15 -18 8 -20 7 -11 10 -14
486.442  14 -15 13 -25 8 -28 15 -41
487.362  3 -26 -6 -31 13 -20 5 -22
488.282  -24 15 -16 10 -23 -2 -23 3
489.202  -13 6 -29 -7 -28 13 -24 -2
490.122  -39 4 -19 9 -36 -16 -46 -10
491.042  -62 -5 -36 0 -61 -22 -71 -33
491.961  -195 30976 89395 75516 43087 29933 15286 3196
492.881  -254 -391 -405 -336 -334 -304 -330 -239
493.801  -203 -104 -96 -57 -72 -41 -60 -43
494.721  -48 -24 -59 -22 -36 -24 -57 -35
495.641  -39 -6 -29 -14 -25 -12 -27 -10
496.561  -28 -10 -19 -13 -22 -14 -15 -13
497.480  -26 -8 -13 -10 -26 -18 -14 -22
498.400  -26 -26 -20 -16 -19 -30 -41 -45
499.320  -30 -44 -43 -47 -38 -55 -39 -52
500.240  -41 -60 -65 -81 -69 -97 -75 -102
501.160  -91 -152 38789 226023 467066 446118 296489 242121
502.080  187434 121055 77731 53293 40689 36287 28134 22496
502.999  21407 15346 8012 -61 -408 -336 -225 -221
503.919  -148 -176 -136 -140 -89 -131 -84 -201
504.839  -230 -261 -178 -188 -116 -115 -73 -96
505.759  -53 -83 -39 -75 -27 -63 -35 -51
506.679  -12 -40 -12 -43 -18 -32 0 -36
507.599  -10 -14 -15 -41 -13 -19 -13 -22
508.519  -8 -17 -15 -11 -3 -20 -19 -19
509.438  -20 -18 -16 -9 -7 -14 -25 -4
510.358  -13 -2 -5 -4 -14 -3 -23 2
511.278  -13 2 -21 -4 -20 0 -24 4
512.198  -26 5 -28 2 -29 8 -31 4
513.118  -36 11 -37 22 -34 19 -36 5
514.038  -25 14 -24 18 -23 21 -16 7
514.957  -30 8 -28 -1 -24 6 -17 10
515.877  -15 -6 -19 4 -13 2 -19 -15
516.797  -18 0 -16 -14 -12 3 -5 -3
517.717  -1 0 15 -10 -4 7 -4 0
518.637  -7 -4 -20 -24 -24 -4 -21 6
519.557  -5 22 -13 6 -19 21 -20 9
520.476  -31 4 -40 22 -34 15 -27 18
521.396  -13 34 -15 15 -20 30 -28 8
522.316  -28 11 -17 11 -24 0 -20 16
523.236  -15 6 -24 -9 -19 0 -11 0
524.156  -17 6 -13 -14 -12 3 -8 -5
525.076  -9 -9 -7 -5 -6 -12 -10 -17
525.995  -8 -18 -8 -19 10 4 16 -18
526.915  1 -27 -7 -19 13 -26 10 -32
527.835  15 -20 22 -13 12 -34 14 -26
528.755  0 -30 13 -23 17 -16 20 -14
529.675  1 -16 4 -31 6 -26 0 -18
530.595  1 -5 5 -21 -12 -7 0 -10
531.515  3 -2 1 -2 -8 -3 -9 -7
532.434  -16 -5 -3 9 -6 4 -20 -5
533.354  -19 4 -23 -1 -17 13 -14 13
534.274  -28 29 -43 3 -29 14 -47 29
535.194  -28 12 -18 7 -31 4 -24 11
536.114  -25 -7 -20 5 -10 -6 -7 0
537.034  -18 -18 -23 0 -5 -6 -11 -7
537.953  -2 -1 -7 -10 5 -12 -1 -13
538.873  8 -7 -1 -21 -1 -11 9 -20
539.793  15 -28 9 -27 3 -12 23 -19
540.713  20 -36 14 -19 17 -21 15 -24
541.633  12 -17 3 -22 20 -2 14 -3
542.553  2 -20 0 -14 3 -4 -2 -4
543.472  -7 -10 -9 -5 -9 6 -3 -1
544.392  -13 5 -15 -1 -19 4 -19 16
545.312  -16 23 -15 16 -17 17 -24 14
546.232  -20 25 -33 7 -27 10 -34 11
547.152  -26 5 -21 -3 -29 0 -17 -20
548.072  18 -16 0 0 2 -4 -1 -2
548.991  -8 -6 -8 -1 -10 -5 -22 7
549.911  -2 1 -26 -4 -22 18 -35 -2
550.831  -12 11 -22 19 -14 15 -25 -1
551.751  -24 2 -22 23 -17 12 -12 7
552.671  -3 0 -5 3 -6 10 -9 -3
553.591  -13 -11 -11 -13 -12 -12 -9 -17
554.511  -11 -22 0 -20 9 -17 9 -14
555.430  13 -31 12 -31 2 -23 8 -25
556.350  15 -30 -1 -9 22 -6 25 -16
557.270  20 -14 5 -15 7 -4 5 -18
558.190  -7 -8 0 -18 -11 2 -3 -3
559.110  1 14 3 7 -8 10 -9 19
560.030  -8 6 -17 11 -28 15 -26 22
560.949  -24 9 -41 13 -38 25 -15 6
561.869  -20 8 -21 4 -19 6 -19 1
562.789  0 2 -17 -6 -10 -6 -2 -6
563.709  -10 -16 -4 -8 2 -19 0 -7
564.629  5 -20 -6 -25 0 -31 2 -23
565.549  13 -30 4 -20 13 -22 15 -10
566.468  10 -9 13 -3 24 -11 8 -18
567.388  1 0 5 -11 -8 -13 -14 1
568.308  0 0 -17 -5 -10 6 -16 0
569.228  -20 7 -17 17 -31 2 -23 19
570.148  -15 0 -5 9 -8 -1 -13 6
571.068  -23 13 -5 10 -1 10 -16 -4
571.987  -6 2 -7 -9 -12 -12 -2 -9
572.907  0 -13 -1 -15 3 -9 -2 -34
573.827  5 -32 14 -32 11 -55 10 -30
574.747  3 -33 15 -29 -1 -33 12 -18
575.667  19 -19 -2 -18 3 -5 -7 -23
576.587  -14 0 0 -7 -21 -10 -22 -22
577.507  -22 1 -13 2 -19 7 6 -40
578.426  5 -43 13 -41 -11 -20 -1 -33
579.346  -13 -41 -8 -33 -10 -30 -16 -26
580.266  -16 -24 -21 -22 -25 -42 -45 -43
581.186  -44 -35 -45 -40 -51 -32 -63 -42
582.106  -55 -35 -70 -32 -68 -24 -72 -42
583.026  -88 -49 -96 -52 -88 -59 -95 -80
583.945  -97 -89 -121 -115 -128 -122 -135 -125
584.865  -135 -144 -141 -152 -164 -176 -182 -211
585.785  -204 -247 -248 -273 -247 -289 -279 -347
586.705  -323 -415 -432 -504 -483 -542 -575 7291
587.625  34072 608082 891445 934440 939869 942009 944651 946071
588.545  947657 948585 949767 950502 951248 952044 952579 953229
589.464  953642 949166 904135 804070 734493 724501 727006 732802
590.384  728709 717258 696880 680494 668682 660412 648619 635815
591.304  371092 344534 339801 337191 328866 326852 97775 24561
592.224  17655 10307 5993 4390 2278 395 -333 -541
593.144  -481 -436 -408 -385 -336 -315 -277 -276
594.064  -246 -248 -203 -236 -182 -209 -154 -187
594.983  -126 -192 -140 -174 -127 -143 -125 -137
595.903  -101 -112 -83 -107 -82 -90 -73 -79
596.823  -80 -78 -80 -71 -67 -52 -65 -52
597.743  -65 -60 -85 -43 -62 -38 -47 -14
598.663  -60 -11 -52 -22 -45 -23 -48 -25
599.583  -38 -4 -26 -17 -36 -26 -32 -19
600.503  -20 -20 -29 -24 -23 -25 -8 -19
601.422  -12 -38 -9 -38 -19 -42 -6 -34
602.342  15 -34 3 -36 9 -24 -2 -27
603.262  8 -36 -14 -29 -6 -31 -8 -23
604.182  -13 -16 -2 -11 -21 -12 -8 1
605.102  -7 1 -18 -10 -25 0 -28 5
606.022  -17 1 -29 0 -26 14 -18 -1
606.941  -23 0 -20 -1 -18 4 -20 1
607.861  -2 3 -5 1 -8 -39 -25 -18
608.781  -18 -8 -24 -2 -17 6 -30 7
609.701  -23 19 -27 18 -25 20 -34 7
610.621  -22 10 -23 2 -17 8 -1 14
611.541  -7 -3 -4 -4 -8 -5 -9 -8
612.460  0 -13 -2 -23 -5 -21 1 -24
613.380  0 -21 7 -22 29 -20 4 -29
614.300  6 -12 10 -18 2 -9 6 -16
615.220  -3 -15 -6 -10 1 -5 -16 -15
616.140  -14 2 -16 2 -20 6 -23 9
617.060  -29 5 -25 28 -19 20 -14 8
617.979  -22 -3 -17 -3 -20 5 -3 4
618.899  -10 5 -7 -11 -11 -2 -4 -3
619.819  4 -12 0 -11 1 -14 0 -11
620.739  1 -17 2 -23 14 -10 0 -14
621.659  22 -28 11 -13 19 -7 -13 -28
622.579  0 -18 -7 -7 -1 0 3 8
623.499  -2 3 -24 -8 -13 10 -15 0
624.418  -18 20 -18 3 -30 25 -13 3
625.338  -22 5 -11 9 -20 -4 -24 -8
626.258  -11 1 -8 0 4 -2 -8 -6
627.178  6 -2 9 -5 10 -15 -1 -22
628.098  19 -22 12 -29 20 -30 27 -25
629.018  -3 -31 5 -21 7 -12 2 -8
629.937  -1 -29 -13 -9 -5 -2 -14 -7
630.857  -16 12 -6 2 -16 18 -23 12
631.777  -7 18 -9 20 -30 3 -28 15
632.697  -5 11 -9 16 -15 12 -17 -5
633.617  -6 2 -1 5 9 0 3 -7
634.537  1 -16 -3 -13 13 -22 7 -30
635.456  12 -23 20 -15 14 -32 5 -21
636.376  17 -28 10 -16 12 -10 5 -5
637.296  -2 -9 -10 -14 -16 -6 -20 -9
638.216  -16 6 -26 12 -9 18 24 -19
639.136  -1 -30 10 -40 6 -32 13 -18
640.056  11 -11 13 -14 3 -12 7 -5
640.975  -11 -10 -5 -7 -21 -6 -2 10
641.895  -1 8 -13 19 -23 13 -30 28
642.815  -19 15 -19 28 -25 14 -18 20
643.735  -13 16 -13 4 -16 5 -5 0
644.655  -3 -16 -11 -4 5 -7 7 -13
645.575  16 -15 12 -15 4 -26 12 -24
646.495  15 -19 13 -12 2 -8 15 -11
647.414  6 -17 4 0 8 -6 -5 -8
648.334  -3 0 -15 -12 -14 3 -8 9
649.254  -11 15 -1 8 -32 1 -39 20
650.174  -40 22 -26 5 -25 15 -27 -2
651.094  -19 -2 -23 -12 -25 -9 -3 -10
652.014  -11 -11 -2 -8 12 -15 0 -18
652.933  -2 -25 0 -22 7 -23 30 -45
653.853  22 -26 14 -19 8 -8 4 -19
654.773  4 -13 -5 -14 -7 -11 -8 -1
655.693  -11 -10 -10 0 -15 9 -14 -2
656.613  -23 10 -16 16 -39 20 -25 13
657.533  -8 22 -14 22 -18 8 -20 0
658.452  -22 -5 -15 -1 -4 -10 -14 -9
659.372  3 -21 -3 -9 4 -15 6 -19
660.292  1 -38 20 -39 9 -36 8 -33
661.212  -3 -18 0 -11 8 -15 3 -12
662.132  0 -6 -8 -14 -10 -12 -5 4
663.052  -12 -7 -25 -3 -24 -1 -34 -11
663.971  -34 11 -28 14 -31 4 -43 0
664.891  -40 -7 -38 -10 -23 -5 -26 -21
665.811  -36 -15 -24 -22 -23 -28 -17 -29
666.731  -21 -40 -46 -55 -30 -56 -40 -78
667.651  -46 -75 -34 -105 -491 242379 678456 680326
668.571  423370 321682 292512 294079 271235 212025 120560 71281
669.491  59869 56764 54291 50607 45124 37221 30254 28509
670.410  28663 26026 23948 23776 22438 18758 16476 12692
671.330  10185 13615 15378 17916 9506 4114 -119 -552
672.250  -423 -399 -317 -286 -234 -233 -210 -213
673.170  -182 -169 -150 -141 -143 -132 -119 -96
674.090  -111 -97 -108 -74 -96 -56 -92 -55
675.010  -70 -43 -62 -36 -62 -33 -69 -32
675.929  -52 -19 -39 -16 -38 -20 -29 -22
676.849  -29 -12 -30 -37 -27 -23 -11 -35
677.769  -15 -27 -15 -31 -5 -20 -2 -40
678.689  5 -44 -5 -31 19 -23 -2 -27
679.609  0 -32 -1 -24 4 -22 -11 -17
680.529  0 -2 -4 -10 -14 -13 -13 -4
681.448  -25 2 -12 5 -30 1 -27 13
682.368  -32 7 -35 0 -25 13 -17 6
683.288  -16 13 -20 -3 -21 1 -15 -1
684.208  -3 8 -4 -12 -14 -15 -4 -3
685.128  10 -10 3 -18 15 -25 11 -29
686.048  11 -22 23 -30 20 -9 23 -30
686.967  17 -17 7 -20 -4 -17 6 -6
687.887  -4 -10 -3 -8 -10 -14 -13 -3
688.807  -15 1 -7 -1 -23 -8 -28 0
689.727  -17 1 -27 18 -30 14 -14 8
690.647  -22 14 -22 27 -10 8 -12 2
691.567  -15 -2 -18 -12 -9 -2 1 -2
692.487  0 -19 -9 -7 13 -17 7 -28
693.406  0 -22 -2 -22 13 -25 25 -14
694.326  -1 -28 18 -13 17 -23 -13 -28
695.246  0 -12 0 -15 -9 -12 -1 -6
696.166  -8 6 -15 -9 -15 -4 -16 2
697.086  -14 2 -24 9 -26 12 -29 31
698.006  0 19 -12 7 -21 8 -17 22
698.925  -10 3 -13 11 -7 -3 9 -20
699.845  -17 -17 -20 -8 -7 -3 -22 3
700.765  -31 2 -14 3 -19 12 -7 13
701.685  -19 20 -40 8 -33 0 -31 -1
702.605  -28 12 -25 0 -24 3 -17 -16
703.525  -18 -11 -16 -16 -11 -15 -11 -22
704.444  -9 -11 5 -17 8 -23 3 -26
705.364  -4 -33 -3 -56 0 -40 -7 -48
706.284  -10 -54 -176 43035 215265 265032 159189 84270
707.204  48614 29470 21810 17865 14224 11437 8888 4562
708.124  1016 366 330 209 -588 -593 -604 -530
709.044  -527 -520 -536 -481 -502 -491 -538 -462
709.963  -446 -411 -414 -353 -405 -384 -442 -378
710.883  -353 -283 -261 -216 -201 -156 -147 -124
711.803  -122 -107 -98 -103 -85 -91 -72 -75
712.723  -58 -69 -40 -59 -44 -82 -28 -67
713.643  -24 -59 -1 -52 9 -59 -9 -42
714.563  -6 -35 -3 -23 0 -27 -8 -23
715.483  -6 -18 -14 -20 -14 -5 0 -10
716.402  -19 -14 -28 -5 -23 -11 -41 -13
717.322  -14 3 -19 9 -27 2 -24 14
718.242  -41 19 -23 16 -16 15 -22 -1
719.162  -27 10 -19 0 -8 6 -8 -7
720.082  -15 10 14 -2 -6 -17 -13 -12
721.002  -4 -14 8 -13 -3 -19 14 -7
721.921  1 -14 26 -23 8 -36 25 -23
722.841  12 -17 11 -28 15 -15 14 -1
723.761  0 -23 -1 -11 0 -9 3 -1
724.681  -4 -7 -12 -7 -7 8 -9 1
725.601  -4 6 -19 3 -24 17 -19 11
726.521  -18 2 -29 9 -26 9 -34 6
727.440  -27 18 -26 1 -22 -27 -240 -458
728.360  -478 -301 -217 -166 -145 -128 -130 -114
729.280  -107 -109 -100 -90 -71 -114 -94 -55
730.200  -70 -53 -86 -47 -61 -40 -83 -50
731.120  -76 -50 -92 -32 -73 -28 -70 -25
732.040  -58 -22 -64 -22 -60 -17 -42 -23
732.959  -32 -14 -33 -13 -14 -10 -17 -9
733.879  -10 -12 -10 -22 -9 -13 -6 -26
734.799  -4 -35 -1 -24 6 -19 24 -35
735.719  2 -13 8 -19 25 -30 14 -28
736.639  6 -36 17 -22 7 -21 0 -13
737.559  -1 -16 9 -4 12 -9 -3 0
738.479  3 2 2 -3 -3 16 5 5
739.398  -6 7 -5 13 -22 -3 -22 8
740.318  4 19 -15 22 -13 9 -19 31
##END=
